x,isPin,relationToFeature,vbar,mbar,thetabar,ybar,v,m,theta,y
0,true,-1,0,0,0,0,0,0,-0.0024020282206919513,0
0,true,1,0,0,0,0,1114.700696292584,0,-0.0024020282206919513,0
0.1,,,-0.12267413636363653,-0.006127048437500009,-5.717660921784321e-14,-1.4290525797289373e-15,1114.5780221562204,111.46394258082091,-0.002402026659570287,-0.00024020277003132951
0.2,,,-0.24620054545454562,-0.0245641241477273,-4.581837655529003e-13,-2.2893853333034416e-14,1114.4544957471296,222.9155751343691,-0.002402021976434772,-0.0004804052278469266
0.3,,,-0.3705792272727276,-0.05539645440340914,-1.5490279204252412e-12,-1.1605788556044375e-13,1114.3301170653115,334.3548124333718,-0.0024020141716314114,-0.0007206070612626865
0.4,,,-0.4958101818181822,-0.09870926647727282,-3.678102803118643e-12,-3.6730464159767667e-13,1114.204886110766,445.7815692505564,-0.0024020032455086006,-0.0009608079581292247
0.5,,,-0.6218934090909095,-0.15458778764204556,-7.196189420780584e-12,-8.979763506020154e-13,1114.0788028834932,557.19576035865,-0.0024019891984171193,-0.0012010076063321152
0.6,,,-0.7488289090909095,-0.22311724517045464,-1.2456456058422249e-11,-1.8646127063386758e-12,1113.9518673834932,668.59730053038,-0.0024019720307101363,-0.0014412056937921293
0.7000000000000001,,,-0.8766166818181824,-0.3043828663352275,-1.9814458278918542e-11,-3.4591895949671796e-12,1113.824079610766,779.9861045384737,-0.0024019517427432075,-0.001681401908465475
0.8,,,-1.005256727272728,-0.39846987840909115,-2.962813892300804e-11,-5.909357822827716e-12,1113.6954395653113,891.3620871556583,-0.0024019283348742752,-0.001921595938344035
0.8999999999999999,,,-1.1347490454545461,-0.5054635086647729,-4.225782810929304e-11,-9.478681844227524e-12,1113.5659472471295,1002.7251631546608,-0.0024019018074636703,-0.0021617874714556047
1,,,-1.2650936363636374,-0.6254489843750004,-5.80662432342396e-11,-1.4466878489227269e-11,1113.4356026562205,1114.075247308209,-0.002401872160874109,-0.002401976195864135
1.1,,,-1.396290500000001,-0.7585115328125005,-7.74184889721774e-11,-2.1210055691427385e-11,1113.304405792584,1225.41225438903,-0.002401839395470697,-0.002642161799669963
1.2,,,-1.528339636363637,-0.9047363812500004,-1.006820572752998e-10,-3.008095121575445e-11,1113.1723566562205,1336.736099169851,-0.002401803511620925,-0.0028823439710100596
1.2999999999999998,,,-1.6612410454545463,-1.0642087569602277,-1.28226827373664e-10,-4.14891713862476e-11,1113.0394552471296,1448.046696423399,-0.0024017645096946734,-0.003122522398058262
1.4000000000000001,,,-1.7949947272727285,-1.23701388721591,-1.604250657751909e-10,-5.588142981384493e-11,1112.9057015653113,1559.343960922402,-0.002401722390064209,-0.003362696769025518
1.5,,,-1.9296006818181826,-1.4232369992897733,-1.9765142626566484e-10,-7.37417861241696e-11,1112.771095610766,1670.6278074395861,-0.0024016771531041848,-0.003602866772160117
1.6,,,-2.0650589090909097,-1.6229633204545462,-2.4028294990873425e-10,-9.559188468531663e-11,1112.635637383493,1781.8981507476801,-0.0024016287991916415,-0.0038430320957479353
1.7,,,-2.2013694090909097,-1.8362780779829548,-2.8869906504591087e-10,-1.219911933356389e-10,1112.4993268834933,1893.1549056194099,-0.0024015773287060084,-0.004083192428112672
1.7999999999999998,,,-2.3385321818181826,-2.063266499147727,-3.4328158729657046e-10,-1.5353724211153372e-10,1112.362164110766,2004.3979868275035,-0.0024015227420291006,-0.004323347457616091
1.9000000000000001,,,-2.4765472272727287,-2.3040138112215915,-4.0441471955795265e-10,-1.9086586197522936e-10,1112.2241490653114,2115.6273091446883,-0.0024014650395451213,-0.004563496872658255
2,,,-2.6154145454545468,-2.5586052414772733,-4.7248505200516e-10,-2.346514235425707e-10,1112.0852817471296,2226.842787343691,-0.0024014042216406605,-0.004803640361677764
2.0999999999999996,,,-2.755134136363637,-2.8271260171875,-5.478815620911593e-10,-2.8560707581080637e-10,1111.9455621562204,2338.044336197239,-0.002401340288704695,-0.005043777613152
2.2,,,-2.8957060000000014,-3.109661365625002,-6.30995614546782e-10,-3.444849848863757e-10,1111.804990292584,2449.23187047806,-0.002401273241128591,-0.005283908315597363
2.3000000000000003,,,-3.037130136363638,-3.406296514062502,-7.22220961380721e-10,-4.1207657271269256e-10,1111.6635661562204,2560.4053049588815,-0.002401203079306099,-0.005524032157569503
2.4,,,-3.179406545454547,-3.7171166897727286,-8.219537418795344e-10,-4.892127557979344e-10,1111.5212897471295,2671.564554412429,-0.0024011298036333596,-0.0057641488276635715
2.5,,,-3.322535227272729,-4.042207120028411,-9.305924826076445e-10,-5.767641839428281e-10,1111.3781610653114,2782.709533611432,-0.002401053414508898,-0.006004258014514449
2.5999999999999996,,,-3.466516181818183,-4.381653032102274,-1.0485380974073355e-9,-6.756414789684347e-10,1111.234180110766,2893.840157328616,-0.002400973912333629,-0.006244359406796988
2.7,,,-3.611349409090911,-4.7355396532670495,-1.1761938873987585e-9,-7.867954734439389e-10,1111.0893468834931,3004.95634033671,-0.0024008912975108537,-0.006484452693226256
2.8000000000000003,,,-3.7570349090909114,-5.10395221079546,-1.3139655409799242e-9,-9.112174494144308e-10,1110.9436613834932,3116.0579974084403,-0.00240080557044626,-0.0067245375625577634
2.9,,,-3.903572681818184,-5.48697593196023,-1.4622611338267089e-9,-1.0499393771286962e-9,1110.797123610766,3227.1450433165332,-0.002400716731547924,-0.006964613703587713
3,,,-4.05096272727273,-5.8846960440340945,-1.621491128892854e-9,-1.2040341537670032e-9,1110.6497335653114,3338.217392833718,-0.0024006247812263085,-0.0072046808051532355
3.0999999999999996,,,-4.199205045454547,-6.297197774289775,-1.792068376409962e-9,-1.3746158421688841e-9,1110.5014912471295,3449.2749607327205,-0.0024005297198942638,-0.007444738556132624
3.2,,,-4.348299636363639,-6.724566350000004,-1.974408113887503e-9,-1.5628399095609294e-9,1110.3523966562204,3560.3176617862696,-0.0024004315479670274,-0.0076847866454455805
3.3000000000000003,,,-4.498246500000004,-7.166886998437506,-2.1689279661128055e-9,-1.7699034662845636e-9,1110.202449792584,3671.3454107670905,-0.0024003302658622237,-0.007924824762053443
3.4,,,-4.64904563636364,-7.624244946875004,-2.376047945151064e-9,-1.9970455045238405e-9,1110.0516506562205,3782.358122447911,-0.0024002258739998653,-0.008164852594959436
3.5,,,-4.800697045454549,-8.096725422585232,-2.5961904503453397e-9,-2.2455471370332287e-9,1109.8999992471295,3893.355711601459,-0.002400118372802351,-0.008404869833208909
3.5999999999999996,,,-4.95320072727273,-8.584413652840912,-2.8297802683165525e-9,-2.5167318358653912e-9,1109.7474955653113,4004.3380930004614,-0.0024000077626944684,-0.008644876165889557
3.7,,,-5.106556681818185,-9.087394864914778,-3.077244572963492e-9,-2.811965671098983e-9,1109.594139610766,4115.305181417646,-0.0023998940441033903,-0.008884871282131692
3.8000000000000003,,,-5.260764909090914,-9.605754286079552,-3.3390129254628044e-9,-3.132657549566423e-9,1109.439931383493,4226.25689162574,-0.0023997772174586787,-0.009124854871108447
3.9,,,-5.415825409090913,-10.139577143607962,-3.6155172742690034e-9,-3.480259453581691e-9,1109.284870883493,4337.19313839747,-0.0023996572831922816,-0.009364826622036035
4,,,-5.571738181818185,-10.688948664772736,-3.907191955114468e-9,-3.856266679668117e-9,1109.128958110766,4448.113836505564,-0.002399534241738534,-0.009604786224173989
4.1,,,-5.72850322727273,-11.253954076846599,-4.214473691009438e-9,-4.262218077286153e-9,1108.9721930653113,4559.018900722748,-0.002399408093534161,-0.009844733366825384
4.199999999999999,,,-5.886120545454548,-11.83467860710228,-4.537801592242017e-9,-4.699696287561174e-9,1108.8145757471295,4669.90824582175,-0.002399278839018271,-0.0100846677393371
4.3,,,-6.044590136363641,-12.431207482812509,-4.877617156378177e-9,-5.170327982011262e-9,1108.6561061562204,4780.7817865752995,-0.0023991464786323625,-0.010324589031100038
4.4,,,-6.203912000000005,-13.043625931250013,-5.2343642682617485e-9,-5.675784101274981e-9,1108.4967842925842,4891.63943775612,-0.0023990110128203194,-0.010564496931549369
4.5,,,-6.364086136363641,-13.67201917968751,-5.608489200014423e-9,-6.217780093839169e-9,1108.3366101562206,5002.481114136941,-0.002398872442028415,-0.010804391130164771
4.6000000000000005,,,-6.52511254545455,-14.31647245539774,-6.000440611035766e-9,-6.798076154766742e-9,1108.1755837471296,5113.30673049049,-0.0023987307667053077,-0.011044271316470674
4.7,,,-6.686991227272732,-14.97707098565342,-6.410669548003195e-9,-7.418477464424445e-9,1108.0137050653113,5224.116201589492,-0.002398585987302045,-0.01128413718003649
4.8,,,-6.849722181818186,-15.653899997727281,-6.8396294448719986e-9,-8.080834427210674e-9,1107.850974110766,5334.909442206676,-0.0023984381042720603,-0.011523988410476856
4.9,,,-7.013305409090914,-16.347044718892057,-7.287776122875333e-9,-8.787042910283248e-9,1107.6873908834932,5445.68636711477,-0.0023982871180711755,-0.011763824697451871
5,,,-7.177740909090914,-17.056590376420463,-7.755567790524202e-9,-9.539044482287177e-9,1107.5229553834931,5556.4468910865,-0.002398133029157598,-0.012003645730667332
5.1,,,-7.343028681818186,-17.782622197585233,-8.24346504360749e-9,-1.0338826652082483e-8,1107.357667610766,5667.190928894593,-0.0023979758379919242,-0.012243451199874984
5.199999999999999,,,-7.509168727272732,-18.525225409659093,-8.751930865191938e-9,-1.118842310747196e-8,1107.1915275653114,5777.918395311777,-0.002397815545037138,-0.012483240794872744
5.3,,,-7.676161045454551,-19.284485239914783,-9.281430625622155e-9,-1.2089913953928983e-8,1107.0245352471295,5888.62920511078,-0.0023976521507586084,-0.012723014205504951
5.4,,,-7.844005636363642,-20.060486915625017,-9.832432082520607e-9,-1.304542595332526e-8,1106.8566906562205,5999.323273064329,-0.002397485655624093,-0.012962771121662598
5.5,,,-8.012702500000005,-20.853315664062514,-1.0405405380787622e-8,-1.4057132762658643e-8,1106.6879937925842,6110.0005139451505,-0.002397316060103738,-0.013202511233283573
5.6000000000000005,,,-8.182251636363642,-21.66305671250002,-1.1000823052601405e-8,-1.5127255172780933e-8,1106.5184446562205,6220.660842525971,-0.0023971433646700745,-0.013442234230352899
5.7,,,-8.352653045454549,-22.489795288210242,-1.1619160017418004e-8,-1.6258061347125605e-8,1106.3480432471295,6331.30417357952,-0.0023969675697980224,-0.013681939802902972
5.8,,,-8.523906727272731,-23.333616618465918,-1.2260893581971353e-8,-1.745186706043567e-8,1106.1767895653113,6441.930421878521,-0.0023967886759648886,-0.013921627641013798
5.9,,,-8.696012681818187,-24.19460593053979,-1.2926503440273241e-8,-1.8711035937491416e-8,1106.0046836107658,6552.5395021957065,-0.0023966066836503663,-0.014161297434813236
6,,,-8.868970909090914,-25.07284845170456,-1.361647167361331e-8,-2.0037979691838178e-8,1105.8317253834932,6663.131329303799,-0.002396421593336538,-0.014400948874477225
6.1,,,-9.042781409090912,-25.968429409232968,-1.4331282750559081e-8,-2.1435158364514177e-8,1105.6579148834933,6773.7058179755295,-0.002396233405507871,-0.014640581650230045
6.199999999999999,,,-9.217444181818184,-26.881434030397735,-1.507142352695593e-8,-2.290508056277827e-8,1105.483252110766,6884.262882983623,-0.0023960421206512222,-0.014880195452344529
6.300000000000001,,,-9.392959227272733,-27.81194754247161,-1.5837383245927117e-8,-2.4450303698837775e-8,1105.3077370653114,6994.802439100808,-0.0023958477392558336,-0.01511978997114233
6.4,,,-9.569326545454551,-28.76005517272729,-1.6629653537873716e-8,-2.6073434228576143e-8,1105.1313697471296,7105.324401099811,-0.0023956502618133367,-0.015359364896994127
6.5,,,-9.74654613636364,-29.725842148437515,-1.7448728420474714e-8,-2.7777127890280906e-8,1104.9541501562205,7215.828683753359,-0.0023954496888177485,-0.015598919920319889
6.6000000000000005,,,-9.924618000000004,-30.70939369687502,-1.829510429868695e-8,-2.9564089943371382e-8,1104.776078292584,7326.315201834181,-0.0023952460207654746,-0.015838454731589117
6.7,,,-10.103542136363641,-31.710795045312516,-1.916927996474511e-8,-3.143707540712641e-8,1104.5971541562205,7436.783870115001,-0.0023950392581553064,-0.016077969021321057
6.8,,,-10.28331854545455,-32.73013142102274,-2.007175659816176e-8,-3.339888929941226e-8,1104.4173777471296,7547.234603368549,-0.0023948294014884243,-0.01631746248008495
6.8999999999999995,,,-10.463947227272731,-33.76748805127842,-2.1003037765727325e-8,-3.54523868754103e-8,1104.2367490653114,7657.667316367551,-0.002394616451268394,-0.0165569347985003
7,,,-10.645428181818186,-34.82295016335229,-2.19636294215101e-8,-3.760047386634489e-8,1104.0552681107658,7768.081923884736,-0.002394400408001171,-0.016796385667237054
7.1,,,-10.827761409090913,-35.89660298451706,-2.2954039906856218e-8,-3.984610671821103e-8,1103.8729348834931,7878.47834069283,-0.002394181272195095,-0.017035814777015903
7.199999999999999,,,-11.010946909090913,-36.98853174204546,-2.397477995038971e-8,-4.2192292830502284e-8,1103.689749383493,7988.856481564559,-0.0023939590443608962,-0.017275221818608463
7.300000000000001,,,-11.19498468181819,-38.09882166321025,-2.502636266801247e-8,-4.4642090794938554e-8,1103.505711610766,8099.216261272654,-0.0023937337250116895,-0.017514606482837577
7.4,,,-11.379874727272734,-39.22755797528412,-2.6109303562904202e-8,-4.7198610634193684e-8,1103.3208215653115,8209.557594589838,-0.0023935053146629786,-0.017753968460577484
7.5,,,-11.56561704545455,-40.374825905539794,-2.722412052552254e-8,-4.9865014040623516e-8,1103.1350792471296,8319.880396288841,-0.002393273813832653,-0.017993307442754118
7.6000000000000005,,,-11.752211636363642,-41.54071068125002,-2.8371333833602952e-8,-5.264451461499352e-8,1102.9484846562204,8430.184581142388,-0.0023930392230409915,-0.018232623120345303
7.7,,,-11.939658500000006,-42.72529752968751,-2.9551466152158763e-8,-5.554037810520654e-8,1102.7610377925841,8540.47006392321,-0.0023928015428106592,-0.018471915184381026
7.8,,,-12.127957636363641,-43.928671678125,-3.0765042533481174e-8,-5.8555922645030723e-8,1102.5727386562205,8650.736759404032,-0.0023925607736667077,-0.018711183325943643
7.8999999999999995,,,-12.317109045454549,-45.15091835383522,-3.201259041713925e-8,-6.169451899282719e-8,1102.3835872471295,8760.98458235758,-0.0023923169161365766,-0.018950427236168157
8,,,-12.50711272727273,-46.392122784090915,-3.329463962997992e-8,-6.495959077027792e-8,1102.1935835653114,8871.213447556582,-0.002392069970750093,-0.01918964660624241
8.1,,,-12.697968681818185,-47.652370196164775,-3.4611722386127966e-8,-6.835461470111336e-8,1102.002727610766,8981.423269773766,-0.002391819938039471,-0.019428841127407368
8.2,,,-12.889676909090912,-48.93174581732954,-3.5964373286986045e-8,-7.188312084984042e-8,1101.8110193834932,9091.61396378186,-0.0023915668185393126,-0.01966801049095732
8.3,,,-13.082237409090915,-50.230334874857974,-3.735312932123469e-8,-7.554869286047022e-8,1101.618458883493,9201.78544435359,-0.002391310612786605,-0.019907154388240145
8.399999999999999,,,-13.275650181818182,-51.54822259602272,-3.8778529864832224e-8,-7.935496819524554e-8,1101.4250461107658,9311.937626261682,-0.002391051321320725,-0.020146272510657526
8.5,,,-13.46991522727273,-52.885494208096596,-4.024111668101498e-8,-8.33056383733694e-8,1101.2307810653115,9422.070424278869,-0.0023907889446834365,-0.02038536454966524
8.6,,,-13.66503254545455,-54.24223493835227,-4.174143392029699e-8,-8.740444920973181e-8,1101.0356637471295,9532.183753177871,-0.0023905234834188894,-0.02062443019677331
8.7,,,-13.86100213636364,-55.61853001406249,-4.3280028120470244e-8,-9.16552010536384e-8,1100.8396941562205,9642.277527731418,-0.002390254938073621,-0.02086346914354632
8.8,,,-14.057824000000005,-57.01446466250001,-4.485744820660461e-8,-9.606174902753787e-8,1100.6428722925841,9752.35166271224,-0.002389983309196557,-0.02110248108160364
8.9,,,-14.25549813636364,-58.430124110937506,-4.647424549104774e-8,-1.0062800326574958e-7,1100.4451981562204,9862.406072893062,-0.00238970859733901,-0.021341465702619616
9,,,-14.45402454545455,-59.865593586647734,-4.813097367342522e-8,-1.0535792915319177e-7,1100.2466717471295,9972.440673046609,-0.002389430803054679,-0.021580422698323876
9.1,,,-14.653403227272731,-61.32095831690341,-4.982818884064047e-8,-1.102555475641091e-7,1100.0472930653114,10082.455377945613,-0.002389149926899651,-0.021819351760501527
9.200000000000001,,,-14.853634181818189,-62.7963035289773,-5.1566449466874814e-8,-1.1532493510080048e-7,1099.8470621107658,10192.450102362798,-0.0023888659694324,-0.0220582525809934
9.299999999999999,,,-15.05471740909091,-64.29171445014204,-5.334631641358731e-8,-1.2057022433234655e-7,1099.6459788834932,10302.424761070888,-0.002388578931213788,-0.02229712485169629
9.4,,,-15.256652909090914,-65.80727630767046,-5.5168352929515104e-8,-1.2599560403333835e-7,1099.4440433834932,10412.37926884262,-0.0023882888128070635,-0.022535968264563215
9.5,,,-15.459440681818187,-67.34307432883523,-5.703312465067299e-8,-1.316053194226039e-7,1099.2412556107658,10522.313540450714,-0.0023879956147778627,-0.02277478251160362
9.6,,,-15.663080727272732,-68.8991937409091,-5.8941199600353725e-8,-1.374036724019369e-7,1099.0376155653114,10632.2274906679,-0.0023876993376942086,-0.023013567284883636
9.7,,,-15.867573045454549,-70.47571977116479,-6.089314818912793e-8,-1.433950217948243e-7,1098.8331232471296,10742.1210342669,-0.0023873999821265117,-0.02325232227652632
9.8,,,-16.07291763636364,-72.07273764687504,-6.288954321484411e-8,-1.4958378358517388e-7,1098.6277786562205,10851.99408602045,-0.0023870975486475704,-0.023491047178711897
9.9,,,-16.279114500000006,-73.69033259531255,-6.493095986262854e-8,-1.5597443115604202e-7,1098.421581792584,10961.846560701271,-0.0023867920378325695,-0.023729741683677967
10,,,-16.486163636363642,-75.32858984375005,-6.701797570488544e-8,-1.6257149552836187e-7,1098.2145326562204,11071.678373082092,-0.002386483450259081,-0.02396840548371979
10.1,,,-16.69406504545455,-76.98759461946027,-6.915117070129687e-8,-1.693795655996708e-7,1098.0066312471295,11181.48943793564,-0.002386171786507065,-0.024207038271190497
10.2,,,-16.90281872727273,-78.66743214971594,-7.133112719882278e-8,-1.7640328838283828e-7,1097.7978775653114,11291.27967003464,-0.0023858570471588683,-0.024445639738501328
10.3,,,-17.11242468181819,-80.36818766178982,-7.355842993170097e-8,-1.8364736924479378e-7,1097.588271610766,11401.048984151827,-0.0023855392327992255,-0.02468420957812189
10.399999999999999,,,-17.322882909090914,-82.08994638295457,-7.5833666021447e-8,-1.9111657214525393e-7,1097.3778133834933,11510.79729505992,-0.002385218344015258,-0.024922747482580356
10.5,,,-17.534193409090918,-83.832793540483,-7.815742497685454e-8,-1.9881571987545176e-7,1097.1665028834932,11620.52451753165,-0.0023848943813964737,-0.025161253144463776
10.6,,,-17.74635618181819,-85.59681436164776,-8.053029869399485e-8,-2.067496942968626e-7,1096.954340110766,11730.230566339742,-0.00238456734553477,-0.02539972625641822
10.7,,,-17.959371227272733,-87.38209407372162,-8.29528814562172e-8,-2.1492343657993333e-7,1096.7413250653115,11839.915356256926,-0.0023842372370244296,-0.025638166511149103
10.8,,,-18.173238545454556,-89.18871790397733,-8.542576993414879e-8,-2.233419474428097e-7,1096.5274577471296,11949.578802055932,-0.0023839040564621232,-0.025876573601421374
10.9,,,-18.387958136363647,-91.01677107968753,-8.794956318569444e-8,-2.3201028739006358e-7,1096.3127381562203,12059.22081850948,-0.0023835678044469085,-0.026114947220059765
11,,,-18.60353000000001,-92.86633882812504,-9.052486265603709e-8,-2.409335769514217e-7,1096.097166292584,12168.8413203903,-0.002383228481580231,-0.026353287059949035
11.1,,,-18.819954136363645,-94.73750637656252,-9.31522721776374e-8,-2.5011699692049275e-7,1095.8807421562205,12278.44022247112,-0.0023828860884659232,-0.02659159281403422
11.200000000000001,,,-19.037230545454555,-96.63035895227279,-9.5832397970234e-8,-2.595657885934957e-7,1095.6634657471295,12388.01743952467,-0.002382540625710205,-0.02682986417532084
11.299999999999999,,,-19.25535922727273,-98.54498178252844,-9.856584864084317e-8,-2.692852540079865e-7,1095.4453370653114,12497.57288632367,-0.0023821920939216825,-0.027068100836875164
